emgValue
578
562
587
573
571
564
592
577
561
552
560
560
493
484
482
470
467
462
469
469
481
482
486
474
479
473
479
475
496
487
485
471
471
464
479
480
470
475
469
465
459
464
459
455
453
461
450
448
445
447
439
438
431
449
435
434
431
457
448
449
437
448
434
435
430
432
434
435
430
438
434
428
425
433
439
436
432
446
437
432
474
479
476
474
469
484
473
462
457
464
455
453
453
461
459
464
471
486
481
488
496
494
487
494
496
497
482
486
496
497
487
477
494
482
474
467
482
481
466
467
480
482
468
459
463
447
439
445
461
448
466
469
469
464
461
450
460
455
460
460
468
459
457
449
463
462
464
459
501
492
482
490
490
475
465
468
467
464
465
468
469
463
454
464
466
458
457
463
465
457
450
464
458
447
445
464
463
453
458
473
494
490
481
490
479
470
471
476
464
463
458
467
467
485
492
500
496
508
511
511
500
511
511
523
505
511
529
525
509
511
511
510
496
490
493
455
455
449
463
459
457
448
455
450
450
433
451
448
445
443
458
448
444
432
447
440
438
433
477
467
471
496
484
476
496
510
523
507
509
529
589
592
571
589
662
778
795
827
951
1049
2144
2055
1984
1937
1931
1844
1787
1835
1902
1821
1809
1864
2011
2096
2025
1951
1887
2082
1985
1883
1819
1878
1914
1871
1855
1970
2240
2199
2167
2145
2096
2018
1920
1719
1679
1745
1727
1673
1682
1767
1750
1765
1798
1756
1701
1685
1680
1798
1775
1488
1456
1414
1410
1366
1326
1282
1315
1386
1401
1408
1488
1506
1527
1466
1464
1296
1344
1314
1350
1360
1351
1345
1334
1346
1328
1424
1382
1396
1395
1413
1424
1391
1197
1189
1234
1210
1152
1114
1126
1104
1105
1118
1101
1162
1162
1152
1135
1088
1138
1123
1104
1075
1152
1155
1175
1136
1189
1168
1179
1191
1173
1179
1148
1136
1088
1085
1132
1173
1200
1179
1165
1163
1153
1168
1126
1111
1075
1104
1123
1097
1073
883
881
873
865
869
863
866
882
880
873
837
816
826
923
976
969
945
932
943
960
917
939
945
938
971
1165
1219
1175
1125
1104
1086
1072
1086
1075
1053
1032
985
970
1037
1095
927
925
967
951
981
972
942
929
910
974
976
979
991
951
976
1038
1019
997
1008
995
978
1043
1036
1040
1050
1099
1173
1262
1242
1191
1159
1162
1154
1143
1127
1093
1077
959
997
1081
1141
1195
1146
1137
1093
1098
1070
1013
985
989
975
1011
1050
1070
1038
1006
993
976
935
912
907
925
943
923
944
971
977
1051
1056
1063
1023
992
978
975
973
946
928
898
871
880
896
966
991
1034
1042
1060
1023
1010
987
954
957
963
945
944
917
928
993
1008
1006
998
1021
1088
1072
1020
1035
1003
974
960
950
959
950
979
1064
1122
1088
1063
1040
1040
1008
970
976
944
942
946
930
906
885
941
1040
1067
1074
1058
1056
912
944
967
973
957
935
927
930
907
896
939
921
900
880
877
933
924
915
885
917
1005
986
980
995
976
962
951
915
884
879
954
1004
974
944
917
885
864
853
829
795
777
761
757
742
722
536
546
531
540
539
545
535
544
546
555
561
550
567
579
593
582
601
599
586
571
566
565
575
560
573
567
560
557
560
560
554
534
528
527
506
499
507
496
493
482
493
481
488
469
498
525
510
511
510
500
495
496
494
486
485
492
506
511
511
506
511
511
510
511
507
503
496
496
475
468
462
464
475
464
461
461
466
464
464
476
478
471
464
469
464
458
457
464
459
461
439
455
448
447
449
464
450
462
468
474
472
471
477
483
481
474
473
486
465
467
466
476
464
454
464
461
459
463
465
476
466
465
473
475
490
487
491
493
481
478
482
483
483
469
475
469
467
465
467
468
467
465
479
464
467
458
463
457
453
455
462
446
452
445
459
449
448
448
474
474
469
477
494
510
496
507
500
490
481
498
491
479
474
477
478
470
464
469
475
469
480
490
481
474
471
474
465
460
467
487
477
476
473
483
478
485
471
492
477
471
462
473
469
495
549
552
560
557
565
642
679
691
701
734
739
829
822
877
880
864
878
896
868
864
848
916
1205
1191
1229
1328
1535
1520
1535
1535
1651
1584
1629
1645
1664
1641
1658
1728
1305
1376
1311
1392
1359
1324
1313
1315
1397
1472
1471
1473
1520
1610
1598
1566
1483
1526
1520
1462
1471
1530
1486
1506
1502
1522
1487
1467
1507
1520
1481
1521
1465
1418
1424
1358
1367
1405
1369
1335
1298
1252
1209
1217
1247
1264
1295
1413
1422
1111
1094
1070
1086
1122
1181
1280
1314
1307
1315
1330
1326
1325
1308
1264
1263
1008
1021
979
967
991
969
1008
978
1014
989
965
939
964
1013
1001
991
975
931
947
945
1124
1067
1072
1046
1043
1067
1090
1132
1104
1068
1077
1059
1085
1273
1243
1251
1215
985
993
1005
964
931
938
927
898
890
927
951
949
942
913
923
903
930
1008
1015
978
938
893
865
848
854
898
952
979
977
960
995
995
987
977
958
923
896
907
875
878
874
961
965
1136
1159
1179
1152
1113
1149
1186
1165
1136
1201
1190
1270
1275
1255
1233
1184
1139
939
942
916
896
898
969
931
910
926
953
960
947
953
977
951
918
967
1019
1107
1193
1161
944
903
887
857
825
794
781
766
733
717
720
717
693
672
660
656
638
633
640
639
624
608
573
560
560
563
550
538
546
530
529
527
534
525
528
511
526
525
528
509
511
528
533
527
507
463
466
464
462
457
457
487
523
511
502
496
483
482
479
479
477
470
464
462
462
462
462
469
470
484
499
496
496
503
487
480
466
477
470
460
449
459
451
448
441
452
442
439
435
445
469
477
474
464
454
457
450
443
442
437
439
439
425
419
425
418
412
406
406
415
409
410
419
417
417
410
426
424
417
407
416
412
414
410
428
419
414
410
419
415
430
419
432
428
424
432
439
430
426
419
431
421
417
410
413
407
415
430
418
417
411
405
400
396
395
392
394
384
400
406
406
402
396
395
400
390
384
390
397
393
390
394
393
384
386
390
394
405
400
410
543
528
523
534
511
499
491
491
479
465
459
464
451
442
434
440
432
432
429
439
432
427
422
387
383
379
377
374
368
368
375
373
368
370
372
381
372
380
389
386
386
384
394
397
396
390
403
400
402
406
407
401
405
413
431
439
439
438
442
434
434
434
442
446
439
443
444
438
432
432
432
426
421
423
432
455
464
500
496
499
511
538
577
601
607
602
614
650
638
632
1161
1186
1175
1274
1295
1274
1256
1212
1247
1336
1399
1433
1501
1521
1515
1517
1477
1567
1575
1568
1568
1520
1453
1478
1558
1521
1473
1454
1424
1392
1363
1328
1275
1063
1063
1045
1043
1104
1173
1136
1123
1113
1072
1052
1023
976
947
1046
1119
1111
1111
1136
1206
1186
1156
1135
1098
1067
1056
1062
1057
1060
1047
1050
1034
1023
969
982
1058
1115
1107
1072
1098
1136
1088
1071
1035
1037
1009
992
1008
978
965
942
775
804
777
753
730
707
721
723
731
742
738
748
755
737
731
749
775
784
763
746
746
770
746
726
723
723
705
700
720
751
793
799
796
784
782
784
781
769
759
740
751
743
751
731
725
848
851
832
828
817
795
772
770
741
743
719
706
734
769
759
762
763
743
734
788
816
830
800
730
720
706
720
781
807
829
814
786
801
802
870
919
919
908
880
880
835
828
832
825
838
857
887
882
912
887
862
886
934
906
879
881
883
942
950
982
976
963
940
909
876
879
978
996
1064
1045
1078
1098
1104
1139
1170
1181
1143
1168
1163
1191
1168
1122
1088
1163
1261
1228
1223
1219
1186
1142
1123
1092
1118
1072
1052
1060
1079
1104
1137
1131
1120
1043
1055
1010
976
958
930
894
899
878
857
846
842
870
863
855
848
881
868
853
879
848
767
785
765
753
767
773
833
907
903
928
922
912
893
876
881
875
871
862
851
828
815
791
784
767
755
732
722
714
711
717
710
688
667
653
659
657
655
646
630
631
656
658
684
678
665
701
702
718
699
688
679
683
665
643
649
639
656
678
662
657
650
668
688
705
713
721
736
732
681
667
656
645
631
625
624
628
608
587
604
602
595
647
651
653
653
643
673
684
713
694
625
627
607
620
622
639
647
639
656
665
640
640
629
637
650
639
640
624
604
589
590
592
591
623
624
623
593
606
596
592
586
585
578
560
551
568
583
569
560
565
576
575
561
576
576
527
538
546
550
550
580
566
555
534
538
526
525
546
558
559
573
559
567
576
560
547
535
550
567
581
595
578
599
615
629
623
607
597
594
611
592
624
629
619
596
601
612
607
603
623
613
595
586
573
569
570
557
549
546
532
532
545
549
539
547
541
544
528
511
524
525
527
511
591
593
581
572
576
560
550
541
555
577
607
608
651
687
704
713
711
760
748
733
735
746
739
713
732
706
693
694
743
715
743
790
816
801
777
768
788
779
754
730
750
729
718
715
708
651
646
635
627
613
603
641
640
623
618
638
649
626
612
613
624
629
683
686
683
663
663
656
809
864
874
875
850
848
847
835
899
916
903
944
930
896
896
881
851
822
844
834
828
802
673
691
710
720
714
721
715
743
752
755
745
729
720
741
753
774
772
784
784
753
768
786
759
609
599
617
611
620
619
618
601
616
635
624
656
629
634
634
626
606
595
607
621
603
595
624
576
562
590
587
592
596
589
578
582
576
576
572
575
570
586
567
582
586
603
586
576
565
554
537
539
566
589
611
595
601
606
603
592
609
595
591
631
634
627
615
595
597
592
582
592
558
534
530
525
540
526
511
507
526
499
498
495
495
482
499
511
528
511
525
504
511
496
539
547
553
545
532
533
541
528
528
525
528
511
503
507
511
502
497
511
496
496
497
496
505
489
474
488
496
507
490
497
493
496
494
507
497
486
480
497
506
503
493
475
487
475
471
445
434
434
434
447
432
427
430
437
422
422
434
434
431
431
432
443
429
429
425
432
425
419
443
448
442
435
433
448
439
433
444
449
442
439
451
455
447
445
454
458
451
446
447
458
443
451
466
464
458
448
466
464
454
449
478
465
461
461
473
467
462
460
468
459
451
450
464
461
462
455
465
455
446
450
461
457
448
449
466
457
452
464
469
466
463
466
475
468
461
467
479
466
470
489
493
477
464
480
470
464
458
459
464
455
449
463
458
446
435
439
448
438
470
477
464
463
460
464
454
447
439
450
443
447
448
453
443
430
442
435
432
431
431
446
442
997
995
1023
1058
1071
1150
1264
1299
1271
1282
1334
1409
1519
1531
1584
1642
1697
1791
1732
1684
1626
1568
1502
1557
1626
1690
1775
1916
1872
1893
1841
1835
1818
1627
1563
1535
1599
1722
1683
1642
1645
1630
1610
1654
1623
1596
1590
1600
1610
1424
1382
1360
1390
1427
1394
1392
1392
1341
1361
1387
1332
1442
1456
1413
1408
1446
1347
1343
1367
1346
1341
1402
1422
1367
1326
1343
1324
1294
1241
1225
1223
1215
1136
1136
1189
1307
1277
1242
1203
1164
1125
1156
1139
1149
1168
1204
1186
1149
1270
1257
1259
1230
1186
1227
1175
1121
1073
1075
1040
1055
1069
1023
1007
979
1045
1058
1020
1021
1040
1047
1183
1179
1216
1235
1232
1211
1200
1187
1145
1119
1111
898
979
954
962
971
1013
1071
1053
1007
958
925
957
992
971
942
933
909
944
983
1104
1118
886
862
853
848
823
820
809
801
783
777
786
767
814
868
879
867
846
869
875
831
837
835
987
991
981
954
929
954
974
969
947
975
1008
993
976
960
950
944
945
918
907
912
895
880
912
960
1057
1038
1103
1143
1133
1136
1121
1083
1041
1013
991
1002
962
958
933
938
911
853
849
839
806
772
762
748
722
701
701
684
665
643
639
629
611
594
598
592
584
565
576
496
496
494
502
496
494
511
533
511
506
498
524
506
494
491
495
478
477
464
474
464
479
495
495
478
480
480
490
478
473
472
489
471
470
471
487
477
469
471
490
484
477
496
485
477
511
529
528
511
511
511
511
500
503
525
511
505
496
510
528
531
511
511
510
500
492
502
497
449
448
458
448
444
464
464
455
458
460
464
464
461
463
467
458
455
451
465
461
457
458
461
449
451
464
461
459
467
479
484
471
464
464
471
464
454
460
463
448
446
454
453
446
446
464
454
451
447
465
462
452
459
464
459
457
448
465
458
458
451
464
460
459
464
472
480
540
551
551
546
542
541
551
533
511
533
537
530
511
511
511
499
496
511
509
495
492
505
511
467
464
464
463
464
454
472
473
467
464
475
481
479
470
479
481
482
473
492
482
486
478
492
499
497
511
511
500
496
498
499
494
498
503
526
503
506
503
523
507
506
511
511
504
497
510
506
501
493
509
505
497
486
526
511
507
497
510
506
503
496
530
511
499
496
523
525
509
493
500
487
483
483
497
491
481
482
485
475
477
478
483
471
469
474
487
472
469
475
480
496
493
502
509
498
498
510
511
510
502
511
526
507
505
511
525
505
498
511
528
511
511
528
483
477
478
487
480
534
539
559
571
625
642
649
635
619
603
609
591
584
578
583
559
553
555
482
471
469
481
483
476
467
495
487
478
467
485
490
475
468
478
479
470
463
466
471
466
463
471
465
465
466
486
477
478
470
479
474
474
465
489
484
477
475
483
475
487
483
494
496
474
485
486
474
473
482
491
481
473
482
485
476
469
482
475
470
464
475
467
465
464
475
861
848
815
779
751
725
706
687
656
638
631
655
737
767
767
777
758
720
720
731
718
700
679
677
656
634
624
607
611
598
596
579
559
555
543
527
511
501
496
485
475
464
471
464
455
451
444
558
564
567
576
560
544
538
534
533
511
509
511
498
487
481
485
476
469
463
470
465
403
414
417
413
411
427
426
421
414
415
418
415
410
418
417
411
406
413
418
420
429
431
431
418
407
421
422
418
415
426
423
416
409
413
410
411
401
406
405
405
400
415
418
417
412
439
438
438
444
442
435
429
432
433
431
425
428
427
419
413
418
423
418
414
417
426
419
413
486
475
469
474
479
468
464
455
458
455
447
454
454
453
450
447
459
446
436
432
441
437
401
400
411
432
428
421
432
427
421
417
423
419
417
421
422
418
409
411
416
413
406
403
415
426
418
437
433
431
428
425
427
421
417
432
448
470
474
489
541
575
574
605
649
752
782
811
1900
1856
1806
1788
1781
1875
1839
1785
1717
1668
1637
1606
1578
1503
1453
1535
1465
1418
1555
1615
1619
1616
1610
1614
1590
1535
1502
1535
1664
1594
1525
1587
1298
1271
1286
1264
1218
1179
1206
1229
1250
1259
1327
1339
1330
1308
1382
1346
1315
1309
1296
1354
1408
1495
1432
1498
