1213
1222
1214
1190
1179
1168
1161
1152
1151
1149
1168
1185
1187
1199
1189
1205
1202
1207
1191
1221
1205
1185
1186
1197
1174
1154
1163
1207
1183
1168
1163
1169
1155
1161
1190
1203
1198
1193
1187
1179
1175
1170
1168
1168
1159
1153
1146
1154
1158
1150
1143
1138
1129
1104
1113
1110
1136
1120
1100
1102
1126
1147
1109
1075
1093
1168
1136
1083
1130
1178
1141
1109
1137
1179
1147
1120
1109
1053
1066
1023
1059
1050
1054
1008
1011
999
1035
1007
996
972
1001
981
1013
994
1004
976
1018
1023
995
975
1017
987
1008
986
1047
1022
1046
1010
1045
1039
1076
1043
1072
1040
1075
1059
1077
1044
1072
1039
1061
1040
1069
1057
1042
1010
1053
1042
1033
979
1034
1007
1019
1042
1074
1040
1040
1014
1039
997
1040
1008
1004
963
961
929
1040
1052
1034
1057
1165
1174
1121
1080
1008
1052
1187
1239
1179
1183
1262
1291
1235
1235
1298
1302
1233
1183
1152
1118
1070
1039
1056
1023
1023
997
951
909
927
906
929
908
938
925
913
893
939
909
908
883
943
913
895
880
933
927
1005
990
994
949
946
928
938
897
947
959
912
898
1023
1057
1013
1040
1153
1190
1119
1087
1063
1040
1053
1047
1055
1009
1003
1019
1056
1023
1023
1014
1046
1023
1023
1008
1023
1023
1059
1036
1047
1015
1021
993
1008
1015
1021
991
991
960
944
949
979
967
975
960
1008
993
981
990
1018
981
962
959
975
954
943
928
935
915
915
899
893
871
869
833
839
818
806
786
793
784
805
768
752
755
784
752
737
749
770
736
719
725
757
733
722
729
748
720
709
703
711
693
688
681
688
656
659
673
665
654
644
651
656
632
623
624
641
623
615
615
619
596
601
596
591
585
594
595
591
600
610
590
587
597
618
638
629
658
688
664
658
688
693
678
656
648
647
640
629
625
639
619
609
611
631
624
622
623
625
619
615
605
610
607
613
606
609
610
609
618
603
617
609
611
609
599
606
614
621
605
603
608
619
621
611
621
613
605
599
599
618
625
619
623
630
625
624
624
624
622
624
617
624
633
641
633
640
661
710
739
779
762
843
848
902
883
887
871
881
886
903
896
899
917
911
905
890
906
901
891
897
949
946
939
935
933
945
939
938
960
997
1007
1015
1042
1104
1115
1105
1139
1167
1144
1177
1229
1244
1222
1245
1248
1264
1238
1240
1235
1217
1211
1217
1179
1178
1183
1178
1151
1169
1157
1168
1151
1143
1131
1157
1122
1113
1154
1113
1130
1103
1141
1107
1115
1088
1131
1098
1119
1082
1115
1079
1098
1066
1074
1039
1053
1008
1050
1023
1058
1016
1063
1033
1054
1010
1040
997
1015
989
1008
965
974
967
987
982
977
944
987
963
976
939
957
941
964
931
970
949
962
929
958
944
966
937
960
931
948
935
935
911
935
917
910
878
943
934
978
980
1021
992
1007
973
1001
975
979
944
983
965
971
971
987
960
990
964
1013
970
999
971
1006
989
1023
1004
1039
991
1065
1062
1046
1008
1031
994
975
993
1112
1089
1062
1059
1136
1118
1077
1061
1163
1146
1142
1149
1200
1182
1152
1138
1130
1124
1099
1103
1158
1137
1146
1136
1287
1301
1232
1232
1186
1533
1591
1821
1893
1806
1763
1687
1610
1616
1631
1571
1553
1507
1570
1493
1086
1072
1042
1073
1023
1005
981
990
990
986
962
950
899
893
881
879
879
905
927
902
885
891
913
892
875
889
882
866
848
863
883
895
896
929
931
891
863
859
871
869
864
863
848
863
886
848
829
911
957
914
871
883
906
885
871
853
839
832
817
782
762
776
783
758
765
766
763
758
737
753
752
735
710
735
743
721
693
716
735
715
688
714
730
721
722
720
736
709
720
720
715
717
710
720
722
724
752
727
719
741
761
752
734
765
845
814
805
847
923
886
918
1099
1207
1200
1190
1200
1205
1708
1863
1936
1901
1943
1920
2023
2158
2177
2299
2517
2791
2786
2743
2851
2903
2765
2725
2863
3197
3105
2896
2730
2761
2630
2515
2363
2224
2143
2069
1941
1830
1821
1839
1775
1741
1811
1861
1817
1758
1781
1779
1689
1596
1575
1535
1452
1379
1367
1391
1319
1251
1235
1227
1165
1104
1104
1102
1043
996
1010
1023
976
942
976
1003
969
931
959
1006
961
925
994
1077
1076
1085
1101
806
814
796
798
774
769
743
774
768
752
742
797
787
751
732
753
912
1275
1334
1303
1261
1263
1216
1178
1136
1154
1115
1085
1101
1145
1098
1082
1041
1008
979
1039
1105
1375
1351
1287
1264
1278
1238
1175
1151
1152
1119
1079
1050
1017
983
960
939
975
938
933
911
914
894
877
847
843
820
819
790
795
771
772
758
752
720
715
697
711
688
688
669
690
683
672
670
688
667
665
656
669
666
656
643
656
639
640
626
641
630
623
624
617
592
612
628
632
625
646
635
627
624
698
682
684
687
686
685
703
688
714
690
673
657
677
667
663
656
668
663
659
661
684
708
706
690
681
713
717
697
699
705
698
682
681
673
676
657
683
672
703
692
687
677
690
666
670
657
672
662
666
656
679
672
663
645
694
669
677
667
687
683
682
681
689
671
671
660
712
718
721
715
727
704
718
709
713
707
717
707
718
714
718
702
718
694
708
715
711
701
705
699
705
702
697
688
703
687
686
673
693
684
682
689
690
678
675
673
668
663
656
645
657
641
643
626
637
627
646
642
643
639
653
643
653
630
641
635
640
624
643
645
686
686
693
679
679
657
683
656
669
654
688
677
680
672
688
674
676
656
681
659
658
656
689
683
688
679
688
671
677
662
687
662
661
656
671
656
659
646
659
644
661
643
666
651
667
653
658
649
657
638
647
642
645
640
650
636
656
651
656
647
666
659
682
657
659
657
679
663
682
674
701
691
704
685
691
676
695
689
698
680
695
679
688
677
691
686
681
663
691
683
682
670
688
675
688
678
689
674
671
649
662
666
676
666
679
667
674
656
673
663
669
653
668
658
657
640
651
641
655
643
655
644
656
640
643
629
640
640
644
635
656
641
656
640
642
637
644
640
656
638
644
629
640
631
641
640
656
653
663
659
676
661
663
651
665
651
649
637
659
654
656
643
661
645
641
630
647
630
644
630
640
620
642
630
653
646
653
641
663
647
655
655
673
667
656
647
656
643
656
656
658
702
688
681
670
682
675
674
663
678
683
682
669
672
683
694
695
700
686
687
678
679
686
701
710
713
714
710
701
698
695
693
684
686
702
718
705
720
720
721
701
716
696
688
674
675
671
673
657
656
677
667
655
652
653
656
642
629
632
638
657
660
661
657
656
663
639
644
637
637
634
638
634
634
633
633
623
626
614
608
608
619
625
638
653
649
647
648
640
652
688
708
690
685
687
689
709
718
700
690
677
663
684
682
702
719
706
733
713
707
743
746
757
776
765
745
762
807
837
865
944
991
976
1022
1046
1040
1115
1085
1070
1072
1046
1094
1130
1136
1113
1083
1043
1051
1061
1053
1034
1040
1060
1068
1065
1093
1126
1097
1075
1040
1072
1035
1074
1135
1161
1168
1291
1285
1237
1227
1200
1189
1250
1377
1350
1363
1392
1395
1353
1394
1359
1398
1487
1579
1562
1591
1566
1600
1637
1621
1600
1659
1642
1664
1597
1534
1497
1463
1481
1468
1473
1488
1535
1567
1514
1490
1485
1507
1475
1477
1535
1535
1569
1612
1613
1559
1554
1651
1632
1665
1776
1760
1773
1770
1674
1611
1629
1653
1713
1663
1664
1646
1592
1640
1615
1575
1586
1648
1666
1649
1619
1593
1609
1616
1554
1597
1559
1513
1472
1434
1474
1455
1413
1383
1375
1357
1319
1323
1328
1323
1328
1328
1431
1487
1589
1581
1591
1617
1591
1695
1710
1631
1600
1586
1677
1627
1583
1589
1600
1632
1619
1616
1581
1614
1664
1641
1633
1640
1638
1647
1616
1673
1648
1584
1535
1559
1529
1513
1535
1618
1566
1535
1517
1569
1579
1674
1635
1680
1680
1525
1471
1483
1557
1520
1486
1490
1514
1431
1451
1442
1518
1485
1463
1424
1375
1321
1314
1318
1354
1437
1467
1419
1472
1535
1525
1509
1517
1471
1444
1442
1441
1456
1441
1430
1425
1409
1532
1579
1526
1573
1565
1578
1610
1659
1717
1651
1678
1666
1712
1776
1714
1681
1675
1792
1888
1881
1860
1782
1759
1754
1693
1718
1712
1648
1616
1626
1620
1581
1531
1523
1582
1521
1527
1535
1535
1716
1745
1673
1595
1535
1584
1520
1600
1639
1598
1573
1535
1505
1507
1488
1488
1454
1530
1534
1553
1505
1459
1447
1449
1503
1591
1630
1647
1644
1594
1626
1639
1584
1581
1533
1502
1478
1529
1470
1488
1454
1487
1473
1491
1575
1622
1575
1584
1559
1580
1535
1525
1475
1429
1439
1473
1449
1465
1456
1616
1744
1687
1702
1663
1735
1735
1701
1619
1535
1513
1519
1520
1507
1494
1517
1626
1663
1605
1574
1525
1534
1501
1491
1533
1524
1471
1440
1440
1423
1535
1472
1434
1432
1575
1613
1591
1648
1707
1711
1680
1684
1648
1605
1582
1573
1554
1555
1502
1488
1519
1505
1479
1488
1535
1554
1553
1557
1527
1492
1557
1473
1451
1488
1439
1569
1637
1616
1600
1803
1855
1936
1911
1871
1789
1719
1695
1651
1618
1667
1675
1662
1639
1769
1800
1734
1670
1630
1600
1639
1605
1565
1527
1520
1535
1520
1501
1487
1473
1481
1516
1654
1643
1590
1579
1559
1535
1494
1502
1511
1483
1477
1456
1535
1517
1472
1456
1437
1439
1456
1466
1477
1437
1424
1405
1430
1445
1514
1585
1558
1607
1575
1599
1635
1616
1568
1529
1505
1581
1534
1489
1482
1498
1447
1389
1376
1395
1408
1441
1398
1481
1559
1493
1486
1437
1402
1383
1425
1424
1578
1535
1563
1617
1655
1624
1595
1535
1520
1498
1444
1535
1628
1761
1729
1748
1704
1735
1691
1670
1621
1581
1509
1438
1438
1436
1438
1436
1473
1411
1378
1402
1407
1467
1402
1395
1501
1589
1728
1671
1593
1525
1476
1488
1441
1393
1383
1382
1485
1472
1519
1484
1456
1399
1520
1616
1623
1619
1585
1568
1515
1485
1450
1458
1518
1566
1535
1462
1475
1406
1349
1346
1360
1428
1440
1469
1527
1486
1440
1406
1455
1478
1463
1421
1401
1370
1399
1396
1344
1298
1295
1341
1346
1370
1391
1467
1472
1425
1557
1558
1535
1487
1558
1643
1597
1639
1712
1771
1695
1725
1778
1756
1699
1639
1564
1488
1443
1392
1363
1342
1361
1477
1453
1403
1411
1371
1363
1427
1497
1478
1421
1360
1319
1370
1328
1297
1276
1331
1357
1371
1334
1391
1436
1523
1510
1519
1476
1578
1554
1562
1519
1488
1459
1439
1475
1473
1475
1438
1424
1439
1406
1388
1456
1585
1526
1509
1527
1590
1521
1472
1419
1419
1517
1488
1506
1483
1458
1431
1421
1430
1403
1393
1441
1559
1490
1467
1486
1421
1424
1379
1338
1306
1262
1225
1263
1296
1411
1362
1376
1372
1328
1365
1346
1309
1314
1341
1349
1319
1311
1306
1381
1345
1318
1392
1385
1367
1379
1347
1321
1295
1279
1283
1332
1310
1296
1285
1303
1325
1349
1339
1360
1401
1375
1360
1341
1479
1424
1388
1326
1280
1248
1205
1153
1220
1280
1291
1286
1309
1296
1305
1311
1316
1331
1360
1390
1328
1331
1329
1287
1255
1233
1186
1138
1140
1145
1141
1214
1316
1306
1393
1375
1381
1402
1377
1364
1346
1330
1296
1314
1360
1328
1363
1456
1535
1531
1520
1515
1455
1397
1377
1330
1313
1328
1302
1295
1291
1279
1319
1482
1587
1530
1488
1430
1482
1502
1522
1471
1447
1427
1413
1377
1429
1409
1360
1415
1362
1346
1331
1296
1327
1315
1314
1300
1264
1231
1223
1233
1233
1199
1182
1171
1189
1193
1408
1570
1618
1609
1587
1595
1562
1520
1442
1409
1394
1430
1371
1330
1287
1315
1303
1293
1367
1353
1329
1310
1279
1278
1246
1245
1210
1178
1139
1132
1100
1103
1084
1050
1163
1264
1265
1243
1195
1182
1274
1325
1343
1328
1289
1251
1200
1210
1308
1280
1264
1269
1234
1175
1127
1095
1051
999
1037
1183
1395
1329
1329
1449
1396
1344
1301
1266
1253
1232
1238
1245
1266
1247
1232
1253
1344
1311
1302
1318
1268
1255
1215
1218
1263
1241
1295
1249
1249
1246
1246
1283
1275
1390
1422
1402
1395
1377
1344
1342
1319
1329
1284
1239
1197
1239
1239
1341
1326
1296
1292
1314
1312
1347
1329
1359
1371
1355
1330
1285
1275
1251
1280
1262
1239
1217
1200
1239
1225
1267
1326
1346
1360
1351
1344
1370
1354
1380
1369
1339
1283
1251
1214
1167
1150
1227
1279
1327
1365
1346
1330
1322
1335
1297
1271
1261
1201
1173
1122
1201
1238
1236
1201
1209
1187
1179
1169
1168
1149
1129
1143
1120
1127
1152
1151
1150
1159
1151
1147
1174
1174
1222
1260
1287
1269
1232
1255
1326
1297
1239
1235
1194
1199
1152
1122
1233
1447
1386
1360
1358
1359
1359
1301
1307
1250
1222
1186
1195
1161
1119
1089
1045
1033
993
1035
1049
1048
1018
1040
1023
1014
1039
1008
976
979
944
915
894
874
834
820
797
786
763
737
719
705
688
686
701
698
682
676
659
659
647
671
699
704
685
736
738
741
743
726
711
696
672
673
656
644
624
623
605
592
599
592
594
602
589
592
577
578
567
567
565
571
566
566
561
578
572
576
573
561
595
596
601
645
651
670
684
689
736
724
711
720
698
694
682
673
662
656
640
639
625
631
630
624
613
624
626
634
622
623
615
614
609
610
595
603
591
592
590
590
576
587
588
593
583
594
585
583
593
607
612
624
603
635
638
622
613
624
610
613
613
656
665
657
646
656
647
643
633
633
625
627
607
597
587
592
573
572
576
583
575
590
594
591
627
639
634
633
621
621
621
612
593
608
594
592
596
608
595
602
589
607
596
593
583
592
579
583
579
590
591
588
604
592
605
604
606
607
624
624
609
613
607
621
609
611
601
617
599
614
609
609
603
607
618
682
669
686
670
684
656
663
623
614
612
617
609
613
612
615
631
632
628
631
640
625
610
625
606
624
626
631
636
643
639
640
651
641
631
633
625
629
626
624
628
619
624
634
654
649
646
640
647
647
638
643
640
639
635
634
624
633
634
625
624
610
607
599
593
601
598
621
618
624
621
619
610
612
610
617
608
615
609
612
606
595
590
595
594
592
594
598
597
592
593
598
607
598
602
600
601
592
597
614
618
623
617
624
615
618
622
619
629
624
622
621
619
624
612
619
617
613
607
615
616
622
624
624
624
614
629
649
637
629
629
632
631
624
622
624
622
617
607
607
608
597
592
607
601
602
610
599
599
592
599
592
591
587
589
587
592
588
590
589
592
581
592
602
602
613
619
606
620
612
618
617
610
612
613
613
613
606
615
611
612
607
602
610
635
627
620
624
637
630
627
621
619
621
615
613
618
607
605
604
603
593
605
592
592
588
592
587
589
576
569
576
579
575
573
576
580
576
587
577
582
583
589
592
592
586
582
593
602
590
595
595
605
612
619
615
619
610
614
614
619
611
615
624
631
627
626
630
633
639
634
643
639
625
633
640
633
634
623
638
635
635
624
623
622
619
621
618
611
621
609
612
617
615
614
624
636
634
624
641
640
633
635
630
642
639
641
641
639
634
640
638
630
625
624
625
627
615
623
629
639
628
635
634
643
645
642
641
643
638
633
633
640
635
635
635
629
635
624
624
624
618
609
620
635
623
624
624
625
624
629
636
624
619
624
612
619
610
612
608
615
605
624
624
625
629
627
636
629
623
621
621
621
615
617
621
613
608
612
607
619
618
618
624
637
626
624
626
638
624
625
625
621
624
623
623
624
621
613
618
619
615
613
615
621
605
608
612
624
617
615
624
623
620
621
619
619
624
630
633
634
630
624
624
624
615
622
624
624
636
628
632
633
631
634
630
631
622
624
620
623
620
621
623
640
637
634
626
634
624
622
615
618
607
622
618
622
615
613
615
623
613
621
615
622
613
615
624
627
621
623
628
638
624
630
627
643
635
638
640
640
630
637
634
629
625
625
628
629
625
624
624
638
633
633
629
619
612
601
602
619
607
621
617
615
613
608
608
619
609
604
607
609
599
605
603
621
610
621
620
624
610
618
604
612
607
614
614
623
612
622
624
638
627
635
638
636
638
645
649
659
646
651
652
655
643
640
647
653
646
647
644
649
640
647
643
630
631
640
633
634
624
629
624
626
639
644
647
656
640
647
643
640
653
654
651
667
653
658
655
670
667
675
663
671
654
663
653
656
644
645
647
662
643
661
653
655
640
647
638
637
626
634
626
624
639
642
638
643
631
640
630
640
631
630
637
646
636
645
639
639
624
630
631
642
629
642
633
643
624
641
642
637
630
643
640
640
640
651
640
646
639
645
638
653
647
653
645
656
646
646
634
643
637
640
636
658
638
644
639
646
635
646
639
642
629
638
650
654
649
662
656
672
661
665
657
676
678
675
661
677
657
674
656
657
657
656
657
652
647
650
635
656
641
643
641
689
686
680
678
672
657
669
657
686
690
688
679
671
656
692
693
724
735
734
711
711
701
721
717
720
709
712
688
698
690
685
671
682
688
693
690
694
698
686
683
685
671
688
688
714
708
719
698
699
692
673
667
688
690
692
706
700
691
692
699
720
731
733
721
722
713
714
697
687
675
657
709
700
682
761
762
771
753
763
753
730
711
717
702
693
688
701
699
687
699
720
710
698
702
734
711
724
703
722
730
769
816
828
855
880
913
912
915
911
948
947
960
979
964
1003
1041
1069
1140
1117
1155
1275
1334
1380
1357
1311
1301
1317
1357
1333
1339
1294
1261
1264
1252
1266
1239
1271
1239
1244
1253
1253
1330
1335
1318
1343
1334
1294
1278
1307
1350
1393
1363
1463
1598
1702
1686
1637
1669
1649
1638
1600
1535
1510
1558
1510
1462
1428
1475
1520
1514
1514
1516
1493
1478
1520
1660
1673
1685
1699
1744
1710
1785
1772
1730
1713
1714
1793
1766
1712
1653
1589
1598
1597
1619
1650
1594
1535
1521
1499
1523
1528
1520
1557
1603
1627
1632
1579
1596
1611
1628
1584
1581
1511
1475
1438
1429
1397
1363
1392
1363
1477
1443
1402
1466
1400
1402
1357
1456
1519
1478
1444
1417
1555
1622
1698
1679
1681
1703
1718
1823
1750
1710
1679
1616
1667
1664
1611
1641
1663
1612
1642
1599
1556
1499
1639
1879
1826
1809
1798
1731
1679
1618
1591
1502
1443
1406
1349
1335
1279
1264
1242
1267
1251
1249
1220
1203
1194
1232
1229
1199
1211
1281
1265
1264
1239
1254
1237
1248
1234
1227
1328
1318
1301
1346
1392
1371
1331
1295
1278
1265
1211
1198
1200
1242
1345
1282
1255
1275
1275
1282
1256
1264
1282
1290
1281
1271
1291
1291
1289
1303
1249
1238
1216
1244
1291
1351
1324
1290
1264
1220
1206
1169
1152
1105
1072
1023
1152
1344
1371
1365
1343
1309
1269
1315
1296
1280
1250
1200
1197
1191
1175
1214
1166
1146
1109
1096
1151
1183
1309
1319
1310
1326
1264
1265
1232
1209
1209
1168
1126
1115
1162
1171
1129
1104
1091
1105
1233
1360
1370
1345
1310
1292
1242
1185
1193
1179
1141
1105
1107
1193
1289
1239
1249
1243
1197
1136
1099
1051
1071
1232
1245
1371
1318
1283
1271
1254
1216
1280
1261
1268
1308
1299
1282
1254
1222
1203
1219
1258
1242
1245
1227
1205
1177
1181
1184
1133
1141
1202
1218
1186
1232
1230
1232
1242
1210
1155
1195
1295
1251
1231
1216
1186
1178
1148
1153
1173
1181
1230
1264
1253
1238
1198
1171
1161
1175
1177
1154
1131
1123
1149
1142
1150
1183
1173
1158
1165
1245
1298
1275
1278
1262
1219
1236
1238
1239
1052
1023
992
1008
983
982
967
961
999
1089
1105
1104
1136
1120
1128
1077
1106
1118
1140
1104
1092
1073
1061
1019
1018
1015
992
1002
1079
1107
1143
1202
1221
1263
1215
1191
1181
1134
1093
1088
1092
1072
1094
1072
1104
1091
1100
1092
1104
1170
1168
1223
1183
1179
1149
1143
1129
1110
1089
1057
1095
1120
1136
1106
1135
1098
1087
1073
1075
1075
1086
1101
1133
1220
1216
1263
1232
1231
1216
1169
1166
1142
1121
1113
1098
1084
1071
1162
1129
1089
1071
1072
1094
1087
1127
1083
1072
1023
1008
989
998
1123
1138
1174
1138
1160
1131
1072
1041
998
966
926
941
981
997
1011
1072
1040
999
960
938
919
899
935
997
972
989
998
960
923
896
896
927
1023
1069
1054
1124
1151
1123
1111
1226
1207
1158
1138
1131
1139
1172
1139
1119
1072
1023
996
981
1009
1008
1012
1044
1041
1023
1023
1067
1122
1263
1219
1239
1216
1174
1129
1170
1217
1201
1183
1187
1197
1200
1190
1161
1142
1095
1074
1068
1070
1168
1232
1202
1164
1151
1118
1103
1083
1103
1137
1103
1065
1010
1003
977
979
1005
989
989
1045
1267
1314
1293
1264
1223
1189
1135
1125
1129
1123
1111
1074
1062
1009
978
954
912
915
958
995
1023
1018
1040
999
989
1004
1023
1023
1009
977
955
1006
1148
1169
1206
1183
1162
1182
1126
1165
1162
1157
1119
1104
1096
1088
1100
1069
1047
1023
1002
1038
1104
1088
1181
1135
1122
1126
1117
1092
1067
1033
1007
994
974
1001
971
947
976
944
933
1008
971
959
1017
972
939
955
944
928
992
983
1008
985
1004
1022
1013
1023
1034
995
1041
1171
1225
1201
1154
1105
1088
1099
1137
1168
1163
1143
1140
1123
1082
1047
1051
1094
1110
1104
1104
1136
1093
1074
1040
981
963
974
995
1015
987
972
955
957
953
969
976
941
960
1075
1129
1086
1081
1065
1047
1053
1008
1008
1006
975
938
911
894
862
841
818
832
842
830
849
896
1008
1001
1040
1023
1021
1007
1038
1014
1008
1008
1019
1008
970
935
923
912
897
928
1013
1023
1200
1155
1207
1166
1129
1116
1148
1104
1098
1104
1123
1099
1134
1181
1232
1263
1265
1271
1282
1326
1294
1239
1226
1170
1135
1085
1079
1043
1023
1097
1104
1135
1134
1104
1117
1104
1090
1091
1073
1081
1078
1046
1037
996
976
947
944
944
1051
1051
1072
1085
1105
1065
1104
1104
1088
1088
1059
1038
1037
1010
987
1001
973
980
989
973
972
980
1072
1103
1066
1033
1046
1074
1054
1058
1001
990
976
944
944
926
907
944
1007
1086
1075
1070
1051
1040
1035
1107
1137
1127
1101
1054
1023
969
978
994
990
972
964
958
944
964
1039
1057
1038
1011
995
1099
1121
1119
1120
1138
1114
1057
1035
980
1023
1040
1007
962
942
948
1058
1245
1246
1210
1174
1133
1104
1074
1059
1058
1137
1146
1109
1087
1078
1090
1232
1277
1262
1221
1210
1199
1136
1139
1115
1077
1040
1133
1205
1218
1212
1232
1235
1216
1271
1286
1306
1278
1240
1232
1182
1154
1115
1072
1068
1226
1409
1443
1379
1461
1451
1402
1356
1328
1303
1296
1253
1210
1200
1190
1179
1186
1194
1310
1401
1424
1398
1385
1319
1277
1272
1264
1225
1257
1340
1306
1286
1242
1212
1201
1179
1221
1227
1206
1172
1186
1168
1150
1149
1156
1169
1153
1149
1136
1109
1418
1397
1330
1325
1355
1328
1339
1349
1286
1268
1344
1329
1272
1213
1164
1194
1154
1104
1059
1054
1076
1091
1135
1329
1307
1247
1215
1174
1182
1185
1133
1135
1124
1138
1108
1119
1153
1163
1216
1184
1147
1152
1168
1117
1114
1084
1072
1055
1033
1015
976
999
991
960
1063
1153
1178
1187
1196
1362
1344
1295
1253
1221
1227
1223
1287
1327
1270
1296
1264
1209
1168
1163
1175
1194
1147
1130
1136
1175
1232
1330
1346
1303
1245
1199
1149
1137
1286
1274
1259
1219
1198
1216
1200
1273
1242
1226
1206
1181
1184
1183
657
649
667
673
656
656
654
641
625
624
617
607
590
591
595
594
594
585
590
586
583
579
576
575
569
572
559
549
553
558
565
560
624
644
640
653
649
678
670
694
707
717
713
720
711
711
720
704
698
682
682
669
673
667
655
643
659
642
624
603
613
606
621
615
622
606
602
592
604
606
598
591
585
592
592
604
603
606
605
606
603
596
604
592
593
597
591
582
582
587
577
576
577
578
573
576
581
592
589
593
593
592
586
591
576
582
565
576
586
592
579
581
603
612
608
597
607
597
607
629
627
622
609
607
600
604
593
583
588
592
592
582
624
629
631
636
627
625
633
631
622
607
609
613
595
592
601
597
615
619
617
601
607
593
605
611
607
604
599
599
611
615
617
628
648
659
656
656
656
663
656
660
656
650
650
651
657
673
665
640
641
639
624
629
624
644
631
632
638
635
644
640
643
635
631
640
629
626
624
611
613
624
611
619
609
621
606
597
605
591
599
596
599
604
598
602
601
609
601
598
597
601
592
601
594
592
584
591
589
594
599
611
609
608
624
609
605
606
596
609
604
609
598
605
602
607
599
614
619
641
633
638
627
627
621
623
622
616
617
624
624
637
627
633
629
624
623
624
624
634
626
626
623
624
615
622
625
640
630
627
625
625
620
627
622
633
622
619
611
623
607
614
618
619
618
624
622
624
617
619
610
611
611
618
612
602
615
618
614
619
607
609
605
605
594
609
599
607
595
600
600
616
611
615
614
618
609
614
606
611
606
606
603
607
597
609
615
627
620
620
619
623
615
624
618
621
606
613
614
610
602
615
607
612
606
609
607
604
599
597
600
621
614
618
615
627
617
624
619
628
613
623
614
623
613
618
609
614
623
624
614
615
605
616
607
615
610
624
610
624
624
627
624
624
622
627
618
624
619
606
603
612
598
607
601
604
592
607
605
618
613
633
624
629
618
624
621
625
622
629
621
615
611
624
609
612
607
616
615
614
609
610
617
611
608
615
609
618
609
615
615
626
611
624
619
623
607
615
613
622
615
615
611
617
606
613
602
607
612
624
623
619
607
614
611
614
607
606
596
595
590
603
601
615
598
609
595
603
597
605
597
607
604
617
610
624
609
623
607
609
599
611
604
621
611
615
630
667
651
656
650
650
638
640
630
642
635
641
631
640
624
634
626
631
624
627
624
625
624
620
613
611
605
604
600
604
606
618
607
603
608
615
609
611
602
602
595
605
592
609
611
606
596
605
599
601
599
609
603
619
615
617
609
613
603
619
605
615
613
621
608
614
595
617
609
621
604
615
609
622
605
612
610
631
622
623
619
624
614
624
615
625
614
622
629
655
640
631
627
640
647
647
652
650
634
646
642
640
628
631
624
629
618
627
623
653
630
633
627
639
631
638
636
643
635
642
643
649
635
639
624
635
624
624
623
629
619
634
626
640
631
646
645
644
640
652
643
641
634
642
653
647
640
640
627
653
636
639
638
635
628
627
635
639
624
630
626
630
622
624
624
625
617
622
621
623
606
609
597
609
598
605
599
606
601
607
608
605
594
601
609
608
602
605
606
606
597
607
616
602
594
605
608
618
614
617
609
614
610
610
598
605
607
634
633
641
640
625
626
624
610
622
632
636
639
640
671
675
675
674
667
676
661
669
669
672
687
678
659
675
691
697
693
699
675
688
689
705
721
735
731
720
701
697
697
707
733
737
768
821
801
883
871
886
877
895
928
927
963
967
947
997
1003
1033
1023
1009
980
974
966
999
1031
1023
982
955
953
944
928
923
905
927
971
946
1012
989
1014
1069
1071
1110
1163
1196
1168
1127
1137
1137
1136
1111
1093
1063
1009
1008
1061
1040
1063
1104
1146
1121
1134
1114
1129
1126
1136
1133
1092
1085
1101
1096
1089
1107
1170
1154
1166
1268
1263
1229
1200
1215
1259
1313
1434
1431
1420
1392
1374
1406
1518
1467
1478
1526
1501
1535
1523
1566
1533
1473
1362
1327
1279
1347
1499
1503
1498
1488
1451
1408
1414
1369
1316
1282
1264
1232
1296
1296
1258
1266
1247
1228
1227
1255
1267
1246
1248
1227
1214
1187
1226
1264
1254
1311
1337
1362
1361
1355
1314
1296
1284
1264
1261
1278
1291
1323
1263
1264
1216
1179
1136
1116
1113
1073
1072
1072
1040
1055
1018
1000
1007
1018
1107
1109
1173
1155
1135
1145
1136
1099
1105
1109
1146
1104
1056
1033
1034
1018
1011
1067
1136
1164
1119
1135
1168
1143
1097
1075
1072
1072
1104
1129
1119
1107
1104
1066
1086
1102
1200
1234
1197
1183
1162
1137
1108
1126
1104
1065
1043
999
983
982
1056
1094
1062
1035
1061
1104
1179
1192
1211
1216
1190
1168
1154
1103
1099
1110
1168
1190
1216
1231
1189
1168
1205
1282
1340
1317
1285
1275
1239
1211
1207
1172
1167
1127
1174
1243
1239
1225
1216
1247
1187
1152
1125
1091
1182
1242
1253
1237
1194
1147
1116
1065
1021
1012
1023
1073
1051
1045
1045
1023
1002
985
973
983
943
927
949
927
931
913
951
993
970
955
929
924
911
1046
1168
1198
1191
1168
1157
1105
1071
1021
1106
1125
1126
1146
1106
1058
1056
1041
1013
993
981
972
991
1064
1049
993
977
957
918
887
860
855
933
927
917
912
913
947
947
922
906
890
848
846
858
858
978
953
912
899
880
879
866
861
906
897
880
875
839
816
826
897
946
941
910
907
892
883
900
902
906
917
891
947
1021
1055
1040
992
983
976
935
936
922
907
906
924
897
880
863
855
866
970
954
979
969
957
998
965
960
976
979
995
972
960
939
919
913
921
906
903
882
855
832
843
872
851
827
831
853
847
838
855
869
845
816
816
818
793
805
836
839
817
794
802
782
811
810
848
851
855
829
835
827
826
800
805
785
795
787
768
777
791
779
801
833
818
826
865
858
861
843
833
868
847
816
803
799
816
805
822
819
806
788
799
812
815
800
787
763
752
748
755
816
829
833
849
831
826
823
885
878
879
871
866
838
812
818
834
802
798
812
893
908
914
917
883
927
1019
1015
1090
1105
1075
1057
1014
1011
1050
1023
1038
1072
1051
1101
1092
1086
1061
1038
1021
1008
1023
999
1022
1015
977
951
944
966
960
961
944
977
957
929
947
939
957
961
975
945
922
906
930
974
974
939
941
955
983
988
978
966
988
951
981
980
1019
1073
1104
1168
1136
1123
1128
1113
1148
1118
1104
1074
1054
1009
1040
1111
1088
1086
1109
1129
1210
1228
1231
1186
1200
1166
1203
1168
1155
1107
1119
1106
1061
1011
1042
1072
1104
1062
1230
1203
1200
1233
1205
1206
1174
1130
1101
1083
1061
1057
1018
1077
1084
1101
1115
1102
1116
1136
1159
1117
1104
1137
1200
1200
1154
1130
1138
1200
1168
1131
1109
1143
1257
1235
1214
1199
1153
1134
1205
1174
1131
1106
1072
1023
1011
1047
1015
1065
1065
1055
1073
1158
1216
1200
1279
1285
1248
1205
1159
1125
1084
1119
1189
1158
1126
1115
1072
1051
1011
1031
1033
1003
1003
1055
1074
1036
1010
976
973
963
946
935
928
927
909
973
1174
1187
1159
1127
1093
1049
1008
1040
1073
1079
1074
1102
1082
1066
1019
1038
1014
1040
1121
1095
1116
1106
1083
1065
1045
1073
1053
1133
1119
1086
1104
1110
1123
1077
1043
1040
1013
1089
1072
1061
1088
1183
1211
1211
1197
1189
1179
1170
1146
1087
1059
1045
1092
1091
1089
1076
1055
1086
1057
1117
1170
1164
1161
1168
1141
1123
1075
1085
1105
1100
1057
1034
1068
1182
1162
1130
1207
1249
1215
1210
1218
1178
1152
1138
1133
1121
1121
1177
1222
1194
1141
1104
1099
1076
1051
1078
1126
1163
1120
1146
1123
1132
1104
1120
1088
1045
1006
1011
987
959
935
910
891
865
939
997
991
980
989
976
986
1014
997
1006
963
959
934
950
976
977
944
957
935
902
894
995
1235
1175
1141
1103
1078
1066
1066
1062
1051
1036
1034
1011
976
976
950
941
934
1072
1134
1125
1152
1110
1086
1183
1168
1148
1181
1151
1120
1088
1075
1038
1001
993
971
995
1055
1038
1070
1089
1109
1119
1126
1146
1140
1102
1069
1056
1003
987
951
917
885
891
889
919
912
919
1013
1074
1059
1051
1039
1007
1017
983
950
944
912
910
885
889
883
1019
1145
1173
1136
1104
1105
1177
1206
1204
1175
1149
1252
1302
1255
1235
1232
1201
1182
1187
1166
1157
1155
1187
1311
1407
1357
1315
1294
1291
1342
1296
1239
1187
1136
1096
1059
1012
1005
970
938
911
885
862
850
850
895
901
861
861
829
816
797
772
754
750
749
723
711
698
688
667
660
671
670
657
650
639
630
622
620
605
603
597
611
603
594
585
587
590
616
673
737
741
721
709
718
747
783
770
665
727
800
782
784
846
962
952
991
978
987
983
944
914
896
880
865
863
868
833
816
830
840
848
861
832
813
814
800
802
827
799
784
774
757
734
720
709
721
701
704
690
674
722
774
783
766
748
767
806
784
773
779
767
757
779
784
779
769
799
823
837
870
847
854
833
824
850
851
848
885
907
896
937
908
930
966
973
1190
1233
1292
1407
1554
1498
1525
1598
1761
1877
1854
1851
1930
1853
1861
1935
1977
2017
2103
2160
2163
2171
2209
2195
2135
2099
2032
2079
2138
2067
2039
2106
2095
2055
1995
2070
2113
2079
2231
2257
2162
2083
2115
2118
2087
2091
2109
2149
2055
1967
1875
1793
1757
1807
1841
1905
1886
1920
2009
1963
1855
1807
1841
1829
1731
1661
1567
1583
1589
1525
1486
1407
1403
1485
1521
1465
1390
1323
1263
1203
1179
1127
1093
1065
1042
982
953
918
944
973
965
939
963
989
957
926
903
894
878
880
886
878
881
877
893
880
861
875
851
823
799
775
764
752
734
793
766
759
752
753
735
731
722
714
717
700
698
687
681
701
721
752
738
729
717
706
695
705
743
731
735
733
752
751
730
730
711
698
690
697
719
739
816
802
790
772
752
739
735
722
712
698
721
699
694
692
703
705
692
685
688
688
688
704
705
756
742
726
733
736
734
742
787
847
838
874
895
896
898
907
909
976
1008
1013
1047
1132
1292
1422
1429
1412
1523
1606
1601
1579
1667
1617
1679
1635
1671
1626
1754
1728
1683
1714
1805
1733
1757
1734
1769
1809
1820
1776
1717
1702
1652
1634
1774
1841
1803
1872
1874
1965
1949
1914
1977
1971
1886
1819
1806
1831
1788
1766
1693
1687
1687
1712
1841
1897
1921
1891
1900
1998
2009
1949
1946
1889
1809
1752
1675
1667
1649
1685
1727
1675
1703
1665
1739
1947
1943
1914
1904
1885
1793
1776
1829
1856
1830
1791
1936
1910
2064
2070
2083
2047
2006
1969
1894
1898
1874
1808
1776
1721
1657
1568
1506
1499
1424
1367
1294
1238
1244
1285
1263
1198
1143
1126
1073
1040
1008
997
965
939
913
893
878
859
832
800
794
779
765
778
797
844
830
816
847
843
822
839
885
909
893
866
847
847
832
814
784
759
754
746
733
720
720
707
708
699
689
745
743
743
743
743
720
727
705
713
703
698
679
675
668
667
647
656
642
673
662
655
641
640
624
646
708
702
686
686
669
661
646
647
641
661
649
652
656
684
677
685
698
694
674
679
702
731
721
717
695
689
677
691
678
667
651
672
665
686
667
678
688
671
661
664
661
699
687
689
670
663
651
655
651
667
647
644
627
634
621
633
618
619
624
635
628
646
647
659
656
657
655
660
698
689
679
676
660
665
693
703
719
701
688
687
674
666
667
652
640
643
645
640
631
640
624
624
624
653
660
672
664
657
643
641
640
635
621
629
661
650
671
679
669
665
653
647
656
657
661
666
656
634
625
651
657
671
673
688
677
656
656
672
705
767
766
750
843
946
992
970
1015
999
975
1035
1071
1109
1200
1209
1257
1423
1439
1447
1497
1523
1600
1575
1613
1782
1830
1838
1851
1831
1789
1776
1759
1750
1827
1791
1895
1875
1455
1347
1393
1392
1493
1479
1424
1427
1439
1427
1387
1358
1382
1490
1469
1425
1425
1387
1328
1359
1392
1366
1369
1460
1500
1456
1387
1367
1329
1333
1327
1335
1285
1267
1285
1307
1392
1330
1284
1244
1370
1338
1334
1440
1418
1386
1378
1371
1346
1392
1394
1417
1369
1339
1299
1253
1215
1200
1173
1150
1104
1058
1008
1009
989
959
918
890
871
848
828
1058
1062
1110
1127
1095
1101
1074
1057
1018
987
963
925
919
890
861
859
943
955
991
1006
1085
1078
1061
1107
1151
1178
1142
1143
1125
1084
1054
1023
985
959
930
906
881
865
851
835
852
892
874
859
832
869
884
922
912
944
960
949
939
967
964
973
960
969
957
942
944
956
943
912
880
903
902
906
915
895
873
854
820
905
896
865
883
869
880
909
891
697
687
698
675
685
667
684
671
676
656
675
656
656
643
646
627
720
734
722
743
752
755
749
752
752
723
720
702
715
704
687
736
731
716
711
707
720
720
750
751
743
725
711
693
697
684
695
678
678
664
667
672
669
663
659
645
655
631
635
625
631
629
627
620
645
651
645
631
631
624
625
630
629
644
635
621
630
627
641
673
673
672
670
656
670
662
667
655
655
645
671
646
657
655
664
654
669
682
700
717
703
715
720
709
768
759
767
757
743
797
770
897
912
1023
1047
1047
1087
1141
1127
1200
1207
1201
1213
1298
1535
1590
1533
1534
1580
1615
1648
1600
1591
1533
1509
1520
1456
1474
1505
1535
1602
1642
1604
1524
1468
1408
1376
1407
1454
1563
1701
1637
1612
1645
1684
1696
1721
1654
1622
1574
1535
1609
1554
1527
1477
1445
1474
1519
1535
1520
1461
1455
1425
1418
1434
1399
1415
1369
1454
1426
1434
1415
1420
1408
1376
1325
1275
1280
1380
1374
1344
1315
1328
1328
1283
1258
1279
1280
1322
1295
1280
1273
1380
1411
1360
1317
1309
1265
1272
1232
1253
1251
1199
1170
1134
1150
1157
1201
1374
1396
1374
1350
1378
1343
1309
1313
1303
1264
1244
1295
1297
1277
1309
1271
1239
1201
1151
1109
1070
1023
1018
995
968
947
915
885
864
842
843
825
807
817
803
829
826
815
786
815
801
813
816
787
798
773
763
763
746
775
799
784
757
768
746
737
723
707
704
687
670
653
665
656
663
643
645
659
681
679
690
688
688
699
678
653
651
647
656
656
643
657
670
662
683
695
691
695
688
693
688
688
696
715
694
682
667
667
656
655
644
648
641
636
637
640
624
628
625
640
651
638
624
632
621
626
615
623
624
624
614
642
711
693
684
702
680
683
663
658
653
651
652
655
653
656
654
659
673
666
688
715
700
707
689
674
673
675
662
673
660
668
654
651
643
632
630
637
624
633
634
655
651
653
642
638
627
640
649
656
639
634
624
629
629
641
636
646
629
617
606
640
630
640
621
662
691
701
682
667
656
645
643
645
645
647
635
656
657
650
686
670
688
688
707
742
726
759
799
877
1005
1023
1129
1168
1277
1328
1360
1391
1415
1408
1414
1391
1373
1339
1354
1414
1485
1488
1351
1405
1445
1494
1522
1535
1515
1474
1467
1510
1492
1455
1408
1415
1392
1472
1474
1436
1447
1422
1441
1445
1397
1357
1346
1366
1401
1392
1363
1331
1285
1318
1410
1440
1488
1520
1677
1725
1749
1744
1695
1711
1779
1730
1690
1617
1583
1553
1667
1673
1634
1622
1613
1577
1573
1883
1865
1831
1744
1667
1666
1597
1520
1535
1628
1619
1590
1504
1455
1437
1392
1505
1451
1410
1351
1289
1233
1183
1136
1079
1040
992
961
927
896
875
848
829
806
793
775
755
734
727
702
705
699
685
675
668
669
647
638
643
647
640
624
639
634
650
637
633
625
625
624
618
595
604
616
663
674
686
668
656
651
698
735
727
738
750
743
738
730
716
719
711
699
699
686
677
695
728
738
737
707
718
705
703
717
707
695
695
690
688
688
674
680
691
709
688
697
687
682
683
674
681
674
671
660
666
662
654
655
656
647
681
679
675
675
678
690
689
676
639
643
635
624
640
659
656
656
643
656
651
688
688
704
688
685
666
675
657
656
645
656
646
649
631
634
630
635
624
638
625
629
614
619
597
603
601
609
595
605
599
615
608
617
601
625
630
641
634
653
646
692
742
752
720
735
723
720
721
710
705
710
707
722
749
771
816
822
795
795
779
763
734
751
767
784
828
899
931
928
914
967
959
1007
1015
1097
1133
1195
1267
1306
1327
1328
1328
1342
1341
1375
1360
1324
1341
1370
1343
1377
1452
1452
1509
1518
1505
1520
1609
1600
1584
1578
1535
1503
1485
1514
1485
1431
1393
1409
1376
1371
1360
1351
1386
1460
1486
1535
1583
1553
1535
1535
1535
1520
1524
1535
1555
1619
1579
1535
1497
1493
1477
1459
1439
1432
1423
1426
1489
1651
1617
1651
1593
1648
1633
1602
1535
1488
1499
1485
1463
1458
1408
1363
1472
1466
1435
930
909
900
892
871
843
823
831
808
779
795
804
794
781
785
767
767
738
754
752
752
752
745
759
763
751
768
769
814
792
816
839
817
797
786
774
756
740
725
711
707
688
665
690
679
663
674
684
701
705
707
711
701
687
698
688
677
671
669
660
684
699
703
697
698
695
688
674
674
661
656
657
659
668
659
655
653
672
694
699
688
684
691
686
671
662
662
670
690
703
705
692
684
683
671
659
647
640
638
639
636
627
629
624
633
626
626
624
618
612
613
610
605
592
624
620
623
613
608
593
611
612
623
637
638
640
635
635
624
623
624
624
624
638
636
635
626
631
640
639
624
624
631
654
645
642
640
636
625
615
617
623
611
600
611
610
617
614
623
610
622
624
625
614
632
638
639
649
634
619
625
626
619
624
620
613
630
646
643
670
658
678
673
674
669
662
686
688
688
691
697
690
706
687
703
729
727
726
767
772
801
848
962
1011
1134
1182
1215
1275
1351
1335
1407
1479
1461
1424
1395
1355
1514
1566
1558
1517
1636
1682
1717
1706
1665
1659
1648
1600
1535
1630
1675
1674
1648
1603
1600
1600
1563
1511
1506
1457
1493
1473
1511
1529
1519
1465
1455
1479
1584
1615
1563
1584
1642
1712
1647
1622
1650
1635
1621
1594
1568
1499
1443
1443
1459
1535
1488
1479
1313
1264
1200
1155
1122
1083
1046
1008
986
976
943
917
891
861
832
816
786
779
763
755
733
743
747
749
732
717
688
706
708
695
671
670
657
658
642
647
661
673
656
658
658
656
677
705
710
695
708
748
738
763
755
752
729
711
724
751
745
748
735
742
718
724
707
691
684
687
698
677
673
702
699
688
672
674
669
661
651
647
640
627
622
641
630
627
612
625
621
618
602
606
614
624
607
630
623
624
609
617
635
683
670
674
663
661
645
643
637
624
601
619
643
654
636
647
652
657
643
650
641
640
624
635
624
617
609
619
606
610
601
622
615
623
615
625
624
629
617
599
595
602
595
603
602
606
592
604
607
601
592
597
612
615
614
615
607
615
609
609
603
609
595
606
603
599
599
602
610
610
597
607
609
605
602
593
593
592
582
581
573
576
571
579
585
582
572
577
587
581
580
584
591
587
576
586
579
614
618
688
704
719
726
736
738
731
728
716
697
743
729
738
731
737
731
713
702
719
733
766
784
894
958
982
1038
1059
1072
1110
1091
1202
1313
1339
1302
1317
1397
1375
1363
1342
1351
1373
1403
1378
1339
1415
1374
1342
1521
1535
1487
1431
1389
1460
1507
1481
1485
1431
1523
1488
1456
1445
1392
1365
1392
1461
1457
1504
1590
1526
1498
1457
1516
1447
1424
1403
1369
1403
1394
1343
1294
998
977
947
917
896
875
857
830
814
800
789
774
760
757
745
725
707
704
691
688
673
673
656
670
645
639
639
626
625
635
636
640
623
624
624
627
621
613
601
613
593
617
607
639
654
655
656
670
674
656
643
633
642
642
639
666
675
699
677
663
667
695
687
707
684
673
658
659
647
643
638
639
647
642
638
651
637
634
625
627
634
640
628
628
617
618
623
624
616
623
610
596
590
599
589
591
581
585
565
575
574
589
593
595
587
579
586
592
578
603
596
599
587
592
590
599
589
597
598
598
593
592
592
599
590
591
576
590
576
583
576
592
576
597
589
589
581
577
571
567
572
579
573
560
582
581
577
580
576
577
592
611
599
619
602
615
594
597
583
592
592
615
613
619
595
603
597
605
597
606
595
594
586
594
583
595
586
593
582
585
581
608
594
603
593
597
591
602
592
592
583
582
579
592
592
602
590
593
583
592
594
608
594
602
595
608
595
605
592
611
611
614
615
621
606
613
605
612
606
612
613
621
601
607
599
614
603
611
598
607
601
605
594
605
593
594
588
597
592
603
593
609
603
614
605
618
602
617
599
613
604
608
596
613
598
611
599
606
594
605
598
611
603
613
599
607
597
608
594
606
597
595
589
587
576
585
583
587
584
592
578
589
576
590
589
594
587
592
586
593
582
592
583
592
583
601
583
592
595
605
595
592
583
592
578
587
583
592
583
594
590
601
592
597
580
591
590
592
588
592
591
598
589
603
592
599
590
593
585
597
590
599
590
599
597
607
589
606
602
614
611
619
606
615
604
615
608
619
598
613
599
598
591
610
592
616
596
614
608
624
627
627
610
606
594
598
587
592
602
597
586
589
579
591
586
592
581
592
581
590
581
592
592
596
592
608
591
606
592
607
599
600
595
612
592
609
606
608
605
605
593
608
607
606
603
592
592
609
614
606
595
620
606
609
591
595
592
599
590
593
593
606
591
615
615
617
599
603
592
587
575
592
598
611
599
610
600
597
579
595
591
593
577
594
593
592
591
593
594
591
588
604
596
602
595
624
633
628
619
624
609
619
607
624
626
639
629
634
620
624
613
625
621
619
609
623
624
634
616
631
624
629
616
624
622
627
609
623
624
638
637
629
628
634
624
633
636
643
631
646
624
628
615
626
625
635
626
627
625
625
618
634
624
623
607
620
624
624
617
624
618
624
616
629
619
624
609
608
602
608
595
602
599
601
591
593
595
595
581
591
590
605
597
595
595
594
604
603
606
606
599
599
592
614
619
611
601
597
607
597
610
605
595
602
593
594
593
597
593
606
604
605
602
593
589
593
590
592
588
599
605
607
603
598
602
606
602
612
594
577
573
575
589
573
591
589
594
592
598
602
611
592
595
601
614
614
618
609
603
598
610
611
618
604
611
601
607
601
604
601
625
613
622
614
613
602
606
605
607
598
604
591
592
592
599
597
607
607
615
612
619
597
611
604
612
597
602
597
602
593
593
593
605
599
609
607
609
602
611
621
656
641
645
655
643
630
643
627
634
624
627
623
624
608
621
607
608
597
598
592
591
582
592
590
589
589
589
589
592
581
593
592
595
592
604
598
603
593
610
614
620
602
615
613
619
605
607
604
605
601
608
595
609
601
603
599
617
604
610
598
609
598
602
595
604
597
607
599
602
618
623
611
607
613
618
614
619
606
619
607
611
603
623
604
611
598
625
623
632
613
625
615
617
615
608
599
613
602
609
596
603
592
606
599
614
602
605
599
612
600
603
602
607
594
594
594
599
589
596
591
599
592
593
590
607
602
613
601
611
602
598
599
597
607
603
599
611
598
601
592
601
591
599
592
599
595
601
599
624
614
629
627
633
619
627
618
625
625
629
613
623
607
618
603
615
599
603
608
625
624
639
625
626
619
625
617
619
609
621
609
612
611
624
620
625
613
621
609
624
608
622
606
619
611
624
612
618
614
622
609
624
615
624
618
625
619
622
613
620
611
613
609
614
606
621
595
605
593
595
587
608
595
599
591
611
593
607
595
603
591
596
593
624
615
622
607
610
613
617
608
621
606
613
598
611
601
608
594
608
595
596
585
592
576
592
587
590
582
592
585
602
587
587
592
607
621
641
624
625
618
610
595
606
594
610
597
604
592
611
600
606
601
613
610
624
614
609
596
594
594
595
580
589
578
595
591
603
598
622
608
615
607
607
613
623
608
605
595
603
594
602
592
599
602
622
613
623
621
625
614
620
609
621
619
627
611
630
639
677
681
671
682
681
662
662
654
649
702
706
749
766
784
784
855
935
1003
991
975
1018
1055
1047
1056
1065
1047
1058
1088
1136
1171
1173
1181
1275
1327
1371
1349
1348
1360
1380
1391
1388
1360
1325
1438
1401
1361
1395
1412
1535
1490
1473
1490
1450
1412
1355
1347
1414
1424
1518
1535
1535
1505
1535
1648
1644
1613
1633
1725
1761
1723
1727
1668
1633
1637
1627
1575
1625
1706
1671
1607
1579
1585
1554
1527
1503
1477
1485
1535
1626
1606
1566
1519
1436
1408
1472
1473
1466
1483
1472
1415
1406
1371
1408
1359
1381
1401
1450
1441
1439
1402
1405
1358
1295
1282
1324
1451
1459
1401
1396
1365
1351
1360
1348
1360
1328
1307
1297
1287
1261
1265
1296
1409
1371
1360
1331
1443
1424
1439
1377
1408
1474
1506
1491
1454
1402
1367
1329
1310
1271
1251
1293
1355
1392
1349
1323
1334
1298
1296
1327
1382
1347
1410
1514
1515
1495
1450
1429
1424
1431
1414
1395
1387
1382
1377
1331
1296
1232
1249
1248
1216
1296
1456
1441
1411
1397
1446
1393
1399
1407
1423
1393
1408
1371
1392
1365
1355
1412
1407
1424
1459
1646
1621
1633
1608
1600
1668
1615
1571
1554
1535
1639
1727
1698
1810
1744
1723
1695
1755
1774
1722
1686
1618
1616
1535
1520
1451
1443
1403
1360
1343
1335
1350
1344
1374
1440
1439
1450
1444
1428
1366
1334
1330
1309
1313
1286
1302
1258
1294
1360
1359
1349
1344
1325
1267
1232
1243
1291
1322
1345
1383
1338
1339
1357
1330
1271
1296
1370
1331
1424
1422
1346
1312
1274
1276
1277
1232
1243
1200
1269
1236
1319
1411
1424
1408
1391
1404
1421
1479
1461
1492
1535
1509
1486
1456
1405
1382
1395
1347
1294
1251
1232
1294
1398
1351
1392
1375
1376
1391
1398
1393
1361
1340
1319
1302
1319
1283
1328
1299
1309
1296
1264
1264
1253
1217
1201
1213
1198
1173
1297
1403
1454
1413
1404
1408
1429
1467
1442
1415
1370
1360
1424
1251
1243
1202
1173
1159
1129
1142
1168
1141
1127
1091
1085
1055
1059
1145
1189
1185
1173
1133
1111
1082
1077
1052
1075
1058
1035
1041
1100
1117
1107
1166
1191
1159
1232
1263
1279
1286
1264
1329
1299
1261
1233
1190
1230
1187
1158
1135
1198
1247
1260
1239
1188
1135
1098
1190
1299
1271
1233
1203
1167
1113
1086
1038
994
981
1008
1084
1120
1104
1071
1038
1009
1019
1038
1040
1039
1051
1104
1104
1079
1023
998
982
1073
1095
1091
1075
1022
990
1006
985
994
969
998
994
1073
1107
1102
1107
1095
1074
1096
1047
1122
1135
1132
1095
1173
1199
1280
1267
1238
1195
1137
1091
1088
1067
1155
1175
1131
1095
1088
1055
1103
1124
1091
1075
1067
1063
1019
994
981
1008
1010
1002
982
959
942
931
976
954
960
950
928
942
1072
1088
1072
1023
1021
1045
1023
1088
1053
1018
1015
1018
1003
1011
1007
993
1005
1055
1044
1056
1065
1179
1155
1183
1127
1104
1099
1083
1033
1013
1045
1023
1040
1075
1116
1108
1083
1104
1113
1086
1055
1037
1001
996
970
987
1018
975
966
975
975
1063
1073
1066
1072
1048
1038
1083
1063
1072
1085
1072
1023
1008
1066
1083
1066
1125
1105
1192
1327
1297
1257
1220
1173
1125
1003
1001
995
1003
990
1011
1049
1046
1039
1046
1079
1085
1085
1087
1050
1019
1023
1047
1106
1090
1049
1061
1041
1043
1055
1088
1136
1244
1230
1187
1155
1115
1113
1122
1083
1071
1045
1008
985
967
959
974
955
960
967
1003
1163
1279
1264
1250
1206
1177
1136
1181
1168
1136
1179
1200
1163
1133
1095
1125
1110
1154
1162
1173
1141
1109
1072
1059
1040
1072
1091
1088
1085
1089
1062
1056
1077
1106
1090
1112
1141
1090
1120
1118
1158
1111
1127
1094
1119
1091
1122
1116
1069
1046
1076
1077
1069
1060
1039
1048
1009
1018
1037
1033
1018
995
994
983
979
964
986
989
946
935
955
930
910
907
880
909
909
906
912
905
914
898
918
962
966
981
970
960
930
911
929
915
908
883
855
899
931
909
913
916
925
930
971
1062
1134
1162
1163
1141
1134
1171
1186
1157
1174
1183
1173
1168
1136
1094
1071
1023
987
974
997
1110
1124
1123
1183
1171
1129
1135
1142
1127
1145
1121
1092
